   k      z      dz     pres   presi   Tabs     tp     tpl      qt      Qc     Qi    REL
 512  4320.90  138.70  609.80  615.17  270.11  311.13  311.13  1.3422  0.0000  0.0000   26.74
 511  4182.20  132.70  620.57  625.55  270.95  310.54  310.54  1.4469  0.0000  0.0000   27.54
 510  4055.50  121.20  630.55  635.15  271.72  310.00  310.00  1.5425  0.0000  0.0000   28.18
 509  3939.80  110.70  639.77  644.02  272.41  309.51  309.51  1.6298  0.0000  0.0000   28.69
 508  3834.10  101.10  648.29  652.22  273.05  309.07  309.07  1.7095  0.0000  0.0000   29.11
 507  3737.60   92.30  656.16  659.77  273.63  308.66  308.66  1.7903  0.0000  0.0000   29.57
 506  3649.50   84.30  663.40  666.74  274.16  308.29  308.29  1.8683  0.0000  0.0000   30.02
 505  3569.00   77.00  670.08  673.15  274.65  307.95  307.95  1.9396  0.0000  0.0000   30.39
 504  3495.50   70.30  676.23  679.05  275.09  307.64  307.64  2.0047  0.0000  0.0000   30.71
 503  3428.40   64.20  681.88  684.47  275.49  307.36  307.36  2.0641  0.0000  0.0000   30.97
 502  3367.10   58.65  687.07  689.46  275.86  307.10  307.10  2.1183  0.0000  0.0000   31.20
 501  3311.10   53.55  691.85  694.04  276.19  306.86  306.86  2.1679  0.0000  0.0000   31.39
 500  3260.00   48.90  696.23  698.24  276.50  306.65  306.65  2.2132  0.0000  0.0000   31.55
 499  3213.30   44.70  700.25  702.10  276.78  306.45  306.45  2.2545  0.0000  0.0000   31.69
 498  3170.60   40.80  703.95  705.64  277.03  306.27  306.27  2.3443  0.0000  0.0000   32.54
 497  3131.70   37.25  707.33  708.88  277.26  306.11  306.11  2.4416  0.0000  0.0000   33.50
 496  3096.10   34.00  710.44  711.85  277.47  305.96  305.96  2.5305  0.0000  0.0000   34.36
 495  3063.70   31.05  713.27  714.57  277.66  305.82  305.82  2.6115  0.0000  0.0000   35.12
 494  3034.00   28.40  715.88  717.07  277.84  305.69  305.69  2.6857  0.0000  0.0000   35.81
 493  3006.90   25.90  718.27  719.36  278.00  305.58  305.58  2.7535  0.0000  0.0000   36.42
 492  2982.20   23.65  720.45  721.45  278.14  305.47  305.47  2.8152  0.0000  0.0000   36.97
 491  2959.60   21.60  722.45  723.36  278.27  305.38  305.38  2.8717  0.0000  0.0000   37.46
 490  2939.00   19.75  724.27  725.11  278.40  305.29  305.29  2.9232  0.0000  0.0000   37.91
 489  2920.10   18.05  725.95  726.72  278.51  305.21  305.21  2.9704  0.0000  0.0000   38.31
 488  2902.90   16.45  727.48  728.18  278.61  305.13  305.13  3.0134  0.0000  0.0000   38.67
 487  2887.20   15.00  728.88  729.52  278.70  305.07  305.07  3.0526  0.0000  0.0000   39.00
 486  2872.90   13.70  730.16  730.74  278.78  305.01  305.01  3.0884  0.0000  0.0000   39.29
 485  2859.80   12.55  731.33  731.87  278.86  304.95  304.95  3.1211  0.0000  0.0000   39.56
 484  2847.80   11.45  732.41  732.89  278.93  304.90  304.90  3.1511  0.0000  0.0000   39.80
 483  2836.90   10.45  733.38  733.83  278.99  304.85  304.85  3.1784  0.0000  0.0000   40.02
 482  2826.90    9.55  734.28  734.69  279.05  304.81  304.81  3.2033  0.0000  0.0000   40.22
 481  2817.80    8.75  735.10  735.47  279.11  304.77  304.77  3.2261  0.0000  0.0000   40.40
 480  2809.40    8.00  735.85  736.19  279.16  304.74  304.74  3.2471  0.0000  0.0000   40.56
 479  2801.80    7.25  736.54  736.85  279.20  304.71  304.71  3.2661  0.0000  0.0000   40.71
 478  2794.90    6.60  737.16  737.44  279.24  304.68  304.68  3.2833  0.0000  0.0000   40.85
 477  2788.60    6.05  737.72  737.99  279.28  304.65  304.65  3.2991  0.0000  0.0000   40.97
 476  2782.80    5.55  738.25  738.49  279.31  304.62  304.62  3.3136  0.0000  0.0000   41.08
 475  2777.50    5.15  738.72  738.95  279.34  304.60  304.60  3.3268  0.0000  0.0000   41.18
 474  2772.50    5.00  739.18  739.40  279.37  304.58  304.58  3.3393  0.0000  0.0000   41.28
 473  2767.50    5.00  739.63  739.85  279.40  304.56  304.56  3.3518  0.0000  0.0000   41.37
 472  2762.50    5.00  740.08  740.30  279.43  304.54  304.54  3.3643  0.0000  0.0000   41.47
 471  2757.50    5.00  740.53  740.76  279.46  304.52  304.52  3.3768  0.0000  0.0000   41.56
 470  2752.50    5.00  740.98  741.21  279.49  304.50  304.50  3.3893  0.0000  0.0000   41.66
 469  2747.50    5.00  741.44  741.66  279.52  304.47  304.47  3.4018  0.0000  0.0000   41.75
 468  2742.50    5.00  741.89  742.11  279.55  304.45  304.45  3.4143  0.0000  0.0000   41.84
 467  2737.50    5.00  742.34  742.57  279.58  304.43  304.43  3.4268  0.0000  0.0000   41.94
 466  2732.50    5.00  742.79  743.02  279.61  304.41  304.41  3.4393  0.0000  0.0000   42.03
 465  2727.50    5.00  743.25  743.47  279.64  304.39  304.39  3.4518  0.0000  0.0000   42.12
 464  2722.50    5.00  743.70  743.93  279.67  304.37  304.37  3.4643  0.0000  0.0000   42.21
 463  2717.50    5.00  744.15  744.38  279.69  304.35  304.35  3.4768  0.0000  0.0000   42.31
 462  2712.50    5.00  744.61  744.83  279.72  304.33  304.33  3.4893  0.0000  0.0000   42.40
 461  2707.50    5.00  745.06  745.29  279.75  304.30  304.30  3.5018  0.0000  0.0000   42.49
 460  2702.50    5.00  745.52  745.74  279.78  304.28  304.28  3.5143  0.0000  0.0000   42.58
 459  2697.50    5.00  745.97  746.20  279.81  304.26  304.26  3.5268  0.0000  0.0000   42.67
 458  2692.50    5.00  746.43  746.65  279.84  304.24  304.24  3.5393  0.0000  0.0000   42.76
 457  2687.50    5.00  746.88  747.11  279.87  304.22  304.22  3.5517  0.0000  0.0000   42.85
 456  2682.50    5.00  747.34  747.56  279.90  304.20  304.20  3.5642  0.0000  0.0000   42.94
 455  2677.50    5.00  747.79  748.02  279.93  304.18  304.18  3.5767  0.0000  0.0000   43.03
 454  2672.50    5.00  748.25  748.47  279.96  304.16  304.16  3.5892  0.0000  0.0000   43.12
 453  2667.50    5.00  748.70  748.93  279.99  304.14  304.14  3.6017  0.0000  0.0000   43.21
 452  2662.50    5.00  749.16  749.39  280.02  304.11  304.11  3.6142  0.0000  0.0000   43.30
 451  2657.50    5.00  749.61  749.84  280.04  304.09  304.09  3.6267  0.0000  0.0000   43.39
 450  2652.50    5.00  750.07  750.30  280.07  304.07  304.07  3.6392  0.0000  0.0000   43.47
 449  2647.50    5.00  750.53  750.76  280.10  304.05  304.05  3.6517  0.0000  0.0000   43.56
 448  2642.50    5.00  750.99  751.21  280.13  304.03  304.03  3.6642  0.0000  0.0000   43.65
 447  2637.50    5.00  751.44  751.67  280.16  304.01  304.01  3.6778  0.0000  0.0000   43.75
 446  2632.50    5.00  751.90  752.13  280.19  303.99  303.99  3.6918  0.0000  0.0000   43.85
 445  2627.50    5.00  752.36  752.59  280.22  303.97  303.97  3.7058  0.0000  0.0000   43.95
 444  2622.50    5.00  752.82  753.04  280.25  303.95  303.95  3.7199  0.0000  0.0000   44.05
 443  2617.50    5.00  753.27  753.50  280.28  303.93  303.93  3.7339  0.0000  0.0000   44.15
 442  2612.50    5.00  753.73  753.96  280.31  303.91  303.91  3.7479  0.0000  0.0000   44.25
 441  2607.50    5.00  754.19  754.42  280.34  303.89  303.89  3.7620  0.0000  0.0000   44.35
 440  2602.50    5.00  754.65  754.88  280.37  303.87  303.87  3.7760  0.0000  0.0000   44.45
 439  2597.50    5.00  755.11  755.34  280.40  303.85  303.85  3.7900  0.0000  0.0000   44.55
 438  2592.50    5.00  755.57  755.80  280.43  303.83  303.83  3.8041  0.0000  0.0000   44.65
 437  2587.50    5.00  756.03  756.26  280.46  303.81  303.81  3.8181  0.0000  0.0000   44.75
 436  2582.50    5.00  756.49  756.72  280.49  303.79  303.79  3.8321  0.0000  0.0000   44.85
 435  2577.50    5.00  756.95  757.18  280.52  303.77  303.77  3.8462  0.0000  0.0000   44.95
 434  2572.50    5.00  757.41  757.64  280.55  303.75  303.75  3.8602  0.0000  0.0000   45.05
 433  2567.50    5.00  757.87  758.10  280.58  303.73  303.73  3.8742  0.0000  0.0000   45.14
 432  2562.50    5.00  758.33  758.56  280.61  303.71  303.71  3.8882  0.0000  0.0000   45.24
 431  2557.50    5.00  758.79  759.02  280.64  303.69  303.69  3.9023  0.0000  0.0000   45.34
 430  2552.50    5.00  759.25  759.48  280.67  303.66  303.66  3.9163  0.0000  0.0000   45.43
 429  2547.50    5.00  759.71  759.94  280.70  303.64  303.64  3.9303  0.0000  0.0000   45.53
 428  2542.50    5.00  760.17  760.40  280.73  303.62  303.62  3.9444  0.0000  0.0000   45.62
 427  2537.50    5.00  760.64  760.87  280.76  303.60  303.60  3.9584  0.0000  0.0000   45.72
 426  2532.50    5.00  761.10  761.33  280.79  303.58  303.58  3.9724  0.0000  0.0000   45.81
 425  2527.50    5.00  761.56  761.79  280.82  303.56  303.56  3.9865  0.0000  0.0000   45.91
 424  2522.50    5.00  762.02  762.25  280.85  303.54  303.54  4.0005  0.0000  0.0000   46.00
 423  2517.50    5.00  762.48  762.72  280.88  303.52  303.52  4.0145  0.0000  0.0000   46.10
 422  2512.50    5.00  762.95  763.18  280.91  303.50  303.50  4.0286  0.0000  0.0000   46.19
 421  2507.50    5.00  763.41  763.64  280.94  303.48  303.48  4.0426  0.0000  0.0000   46.28
 420  2502.50    5.00  763.87  764.11  280.97  303.46  303.46  4.0566  0.0000  0.0000   46.38
 419  2497.50    5.00  764.34  764.57  281.00  303.44  303.44  4.0707  0.0000  0.0000   46.47
 418  2492.50    5.00  764.80  765.03  281.03  303.42  303.42  4.0847  0.0000  0.0000   46.56
 417  2487.50    5.00  765.27  765.50  281.06  303.40  303.40  4.0987  0.0000  0.0000   46.65
 416  2482.50    5.00  765.73  765.96  281.09  303.38  303.38  4.1127  0.0000  0.0000   46.75
 415  2477.50    5.00  766.19  766.43  281.12  303.36  303.36  4.1268  0.0000  0.0000   46.84
 414  2472.50    5.00  766.66  766.89  281.15  303.34  303.34  4.1408  0.0000  0.0000   46.93
 413  2467.50    5.00  767.12  767.36  281.18  303.32  303.32  4.1548  0.0000  0.0000   47.02
 412  2462.50    5.00  767.59  767.82  281.21  303.30  303.30  4.1689  0.0000  0.0000   47.11
 411  2457.50    5.00  768.05  768.29  281.24  303.28  303.28  4.1829  0.0000  0.0000   47.20
 410  2452.50    5.00  768.52  768.75  281.27  303.26  303.26  4.1969  0.0000  0.0000   47.29
 409  2447.50    5.00  768.99  769.22  281.30  303.24  303.24  4.2110  0.0000  0.0000   47.38
 408  2442.50    5.00  769.45  769.69  281.33  303.22  303.22  4.2250  0.0000  0.0000   47.47
 407  2437.50    5.00  769.92  770.15  281.36  303.20  303.20  4.2390  0.0000  0.0000   47.55
 406  2432.50    5.00  770.39  770.62  281.39  303.18  303.18  4.2531  0.0000  0.0000   47.64
 405  2427.50    5.00  770.85  771.09  281.42  303.16  303.16  4.2671  0.0000  0.0000   47.73
 404  2422.50    5.00  771.32  771.55  281.45  303.14  303.14  4.2811  0.0000  0.0000   47.82
 403  2417.50    5.00  771.79  772.02  281.48  303.12  303.12  4.2951  0.0000  0.0000   47.90
 402  2412.50    5.00  772.25  772.49  281.51  303.10  303.10  4.3092  0.0000  0.0000   47.99
 401  2407.50    5.00  772.72  772.96  281.54  303.08  303.08  4.3232  0.0000  0.0000   48.08
 400  2402.50    5.00  773.19  773.42  281.57  303.06  303.06  4.3372  0.0000  0.0000   48.16
 399  2397.50    5.00  773.66  773.89  281.60  303.04  303.04  4.3513  0.0000  0.0000   48.25
 398  2392.50    5.00  774.13  774.36  281.63  303.02  303.02  4.3653  0.0000  0.0000   48.34
 397  2387.50    5.00  774.59  774.83  281.66  303.00  303.00  4.3793  0.0000  0.0000   48.42
 396  2382.50    5.00  775.06  775.30  281.69  302.98  302.98  4.3934  0.0000  0.0000   48.51
 395  2377.50    5.00  775.53  775.77  281.72  302.96  302.96  4.4074  0.0000  0.0000   48.59
 394  2372.50    5.00  776.00  776.24  281.75  302.94  302.94  4.4214  0.0000  0.0000   48.68
 393  2367.50    5.00  776.47  776.71  281.78  302.92  302.92  4.4354  0.0000  0.0000   48.76
 392  2362.50    5.00  776.94  777.18  281.81  302.90  302.90  4.4495  0.0000  0.0000   48.85
 391  2357.50    5.00  777.41  777.65  281.84  302.87  302.87  4.4635  0.0000  0.0000   48.94
 390  2352.50    5.00  777.88  778.12  281.87  302.85  302.85  4.4775  0.0000  0.0000   49.02
 389  2347.50    5.00  778.35  778.59  281.90  302.83  302.83  4.4915  0.0000  0.0000   49.11
 388  2342.50    5.00  778.82  779.06  281.93  302.81  302.81  4.5055  0.0000  0.0000   49.19
 387  2337.50    5.00  779.29  779.53  281.96  302.79  302.79  4.5195  0.0000  0.0000   49.28
 386  2332.50    5.00  779.76  780.00  281.99  302.77  302.77  4.5335  0.0000  0.0000   49.36
 385  2327.50    5.00  780.24  780.47  282.01  302.75  302.75  4.5475  0.0000  0.0000   49.45
 384  2322.50    5.00  780.71  780.94  282.04  302.73  302.73  4.5615  0.0000  0.0000   49.53
 383  2317.50    5.00  781.18  781.42  282.07  302.70  302.70  4.5755  0.0000  0.0000   49.62
 382  2312.50    5.00  781.65  781.89  282.10  302.68  302.68  4.5896  0.0000  0.0000   49.70
 381  2307.50    5.00  782.12  782.36  282.13  302.66  302.66  4.6036  0.0000  0.0000   49.78
 380  2302.50    5.00  782.60  782.83  282.16  302.64  302.64  4.6176  0.0000  0.0000   49.87
 379  2297.50    5.00  783.07  783.31  282.19  302.62  302.62  4.6316  0.0000  0.0000   49.95
 378  2292.50    5.00  783.54  783.78  282.22  302.60  302.60  4.6456  0.0000  0.0000   50.03
 377  2287.50    5.00  784.02  784.25  282.25  302.58  302.58  4.6596  0.0000  0.0000   50.11
 376  2282.50    5.00  784.49  784.73  282.27  302.56  302.56  4.6736  0.0000  0.0000   50.20
 375  2277.50    5.00  784.96  785.20  282.30  302.53  302.53  4.6876  0.0000  0.0000   50.28
 374  2272.50    5.00  785.44  785.67  282.33  302.51  302.51  4.7016  0.0000  0.0000   50.36
 373  2267.50    5.00  785.91  786.15  282.36  302.49  302.49  4.7156  0.0000  0.0000   50.44
 372  2262.50    5.00  786.39  786.62  282.39  302.47  302.47  4.7297  0.0000  0.0000   50.52
 371  2257.50    5.00  786.86  787.10  282.42  302.45  302.45  4.7437  0.0000  0.0000   50.60
 370  2252.50    5.00  787.34  787.57  282.45  302.43  302.43  4.7577  0.0000  0.0000   50.68
 369  2247.50    5.00  787.81  788.05  282.48  302.41  302.41  4.7717  0.0000  0.0000   50.76
 368  2242.50    5.00  788.29  788.52  282.51  302.39  302.39  4.7857  0.0000  0.0000   50.84
 367  2237.50    5.00  788.76  789.00  282.53  302.36  302.36  4.7997  0.0000  0.0000   50.92
 366  2232.50    5.00  789.24  789.48  282.56  302.34  302.34  4.8137  0.0000  0.0000   51.00
 365  2227.50    5.00  789.71  789.95  282.59  302.32  302.32  4.8277  0.0000  0.0000   51.08
 364  2222.50    5.00  790.19  790.43  282.62  302.30  302.30  4.8417  0.0000  0.0000   51.16
 363  2217.50    5.00  790.67  790.90  282.65  302.28  302.28  4.8557  0.0000  0.0000   51.24
 362  2212.50    5.00  791.14  791.38  282.68  302.26  302.26  4.8698  0.0000  0.0000   51.32
 361  2207.50    5.00  791.62  791.86  282.71  302.24  302.24  4.8838  0.0000  0.0000   51.39
 360  2202.50    5.00  792.10  792.34  282.74  302.22  302.22  4.8978  0.0000  0.0000   51.47
 359  2197.50    5.00  792.57  792.81  282.77  302.19  302.19  4.9118  0.0000  0.0000   51.55
 358  2192.50    5.00  793.05  793.29  282.79  302.17  302.17  4.9258  0.0000  0.0000   51.62
 357  2187.50    5.00  793.53  793.77  282.82  302.15  302.15  4.9398  0.0000  0.0000   51.70
 356  2182.50    5.00  794.01  794.25  282.85  302.13  302.13  4.9538  0.0000  0.0000   51.78
 355  2177.50    5.00  794.49  794.73  282.88  302.11  302.11  4.9678  0.0000  0.0000   51.85
 354  2172.50    5.00  794.97  795.21  282.91  302.09  302.09  4.9818  0.0000  0.0000   51.93
 353  2167.50    5.00  795.44  795.68  282.94  302.07  302.07  4.9958  0.0000  0.0000   52.01
 352  2162.50    5.00  795.92  796.16  282.97  302.05  302.05  5.0099  0.0000  0.0000   52.08
 351  2157.50    5.00  796.40  796.64  283.00  302.02  302.02  5.0239  0.0000  0.0000   52.16
 350  2152.50    5.00  796.88  797.12  283.02  302.00  302.00  5.0379  0.0000  0.0000   52.23
 349  2147.50    5.00  797.36  797.60  283.05  301.98  301.98  5.0519  0.0000  0.0000   52.31
 348  2142.50    5.00  797.84  798.08  283.08  301.96  301.96  5.0659  0.0000  0.0000   52.38
 347  2137.50    5.00  798.32  798.56  283.11  301.94  301.94  5.0799  0.0000  0.0000   52.45
 346  2132.50    5.00  798.80  799.04  283.14  301.92  301.92  5.0939  0.0000  0.0000   52.53
 345  2127.50    5.00  799.28  799.52  283.17  301.90  301.90  5.1079  0.0000  0.0000   52.60
 344  2122.50    5.00  799.77  800.01  283.20  301.88  301.88  5.1219  0.0000  0.0000   52.67
 343  2117.50    5.00  800.25  800.49  283.23  301.85  301.85  5.1359  0.0000  0.0000   52.75
 342  2112.50    5.00  800.73  800.97  283.26  301.83  301.83  5.1500  0.0000  0.0000   52.82
 341  2107.50    5.00  801.21  801.45  283.28  301.81  301.81  5.1640  0.0000  0.0000   52.90
 340  2102.50    5.00  801.69  801.93  283.30  301.78  301.78  5.1781  0.0000  0.0000   53.00
 339  2097.50    5.00  802.17  802.42  283.32  301.75  301.75  5.1921  0.0000  0.0000   53.10
 338  2092.50    5.00  802.66  802.90  283.35  301.72  301.72  5.2062  0.0000  0.0000   53.20
 337  2087.50    5.00  803.14  803.38  283.37  301.69  301.69  5.2203  0.0000  0.0000   53.30
 336  2082.50    5.00  803.62  803.86  283.39  301.66  301.66  5.2343  0.0000  0.0000   53.40
 335  2077.50    5.00  804.11  804.35  283.41  301.64  301.64  5.2484  0.0000  0.0000   53.49
 334  2072.50    5.00  804.59  804.83  283.43  301.61  301.61  5.2625  0.0000  0.0000   53.59
 333  2067.50    5.00  805.07  805.31  283.45  301.58  301.58  5.2766  0.0000  0.0000   53.69
 332  2062.50    5.00  805.56  805.80  283.47  301.55  301.55  5.2906  0.0000  0.0000   53.79
 331  2057.50    5.00  806.04  806.28  283.50  301.52  301.52  5.3047  0.0000  0.0000   53.88
 330  2052.50    5.00  806.53  806.77  283.52  301.49  301.49  5.3188  0.0000  0.0000   53.98
 329  2047.50    5.00  807.01  807.25  283.54  301.46  301.46  5.3328  0.0000  0.0000   54.08
 328  2042.50    5.00  807.50  807.74  283.56  301.43  301.43  5.3469  0.0000  0.0000   54.18
 327  2037.50    5.00  807.98  808.22  283.58  301.40  301.40  5.3610  0.0000  0.0000   54.27
 326  2032.50    5.00  808.47  808.71  283.60  301.37  301.37  5.3750  0.0000  0.0000   54.37
 325  2027.50    5.00  808.95  809.19  283.62  301.35  301.35  5.3891  0.0000  0.0000   54.47
 324  2022.50    5.00  809.44  809.68  283.65  301.32  301.32  5.4032  0.0000  0.0000   54.56
 323  2017.50    5.00  809.92  810.17  283.67  301.29  301.29  5.4173  0.0000  0.0000   54.66
 322  2012.50    5.00  810.41  810.65  283.69  301.26  301.26  5.4313  0.0000  0.0000   54.75
 321  2007.50    5.00  810.90  811.14  283.71  301.23  301.23  5.4454  0.0000  0.0000   54.85
 320  2002.50    5.00  811.38  811.63  283.73  301.20  301.20  5.4595  0.0000  0.0000   54.94
 319  1997.50    5.00  811.87  812.12  283.75  301.17  301.17  5.4735  0.0000  0.0000   55.04
 318  1992.50    5.00  812.36  812.60  283.77  301.14  301.14  5.4876  0.0000  0.0000   55.14
 317  1987.50    5.00  812.85  813.09  283.80  301.11  301.11  5.5017  0.0000  0.0000   55.23
 316  1982.50    5.00  813.33  813.58  283.82  301.09  301.09  5.5157  0.0000  0.0000   55.33
 315  1977.50    5.00  813.82  814.07  283.84  301.06  301.06  5.5298  0.0000  0.0000   55.42
 314  1972.50    5.00  814.31  814.56  283.86  301.03  301.03  5.5439  0.0000  0.0000   55.51
 313  1967.50    5.00  814.80  815.04  283.88  301.00  301.00  5.5580  0.0000  0.0000   55.61
 312  1962.50    5.00  815.29  815.53  283.90  300.97  300.97  5.5720  0.0000  0.0000   55.70
 311  1957.50    5.00  815.78  816.02  283.92  300.94  300.94  5.5861  0.0000  0.0000   55.80
 310  1952.50    5.00  816.27  816.51  283.95  300.91  300.91  5.6002  0.0000  0.0000   55.89
 309  1947.50    5.00  816.76  817.00  283.97  300.88  300.88  5.6142  0.0000  0.0000   55.98
 308  1942.50    5.00  817.25  817.49  283.99  300.85  300.85  5.6283  0.0000  0.0000   56.08
 307  1937.50    5.00  817.74  817.98  284.01  300.82  300.82  5.6424  0.0000  0.0000   56.17
 306  1932.50    5.00  818.23  818.47  284.03  300.80  300.80  5.6565  0.0000  0.0000   56.26
 305  1927.50    5.00  818.72  818.96  284.05  300.77  300.77  5.6705  0.0000  0.0000   56.36
 304  1922.50    5.00  819.21  819.46  284.07  300.74  300.74  5.6846  0.0000  0.0000   56.45
 303  1917.50    5.00  819.70  819.95  284.10  300.71  300.71  5.6987  0.0000  0.0000   56.54
 302  1912.50    5.00  820.19  820.44  284.12  300.68  300.68  5.7127  0.0000  0.0000   56.64
